% Time (s)	Gyro Output (V)	Input Rate (rad/s)	%1/26/201811:23 AM
0.000	0.000	0.000
7672.520	11.250	-0.806
7672.540	12.720	-1.099
7672.610	28.250	-4.102
7672.630	32.540	-4.761
7672.850	67.280	-12.085
7672.860	67.950	-12.085
7672.880	68.470	-12.451
7672.890	68.590	-12.744
7672.910	70.210	-12.891
7672.920	71.200	-13.257
7672.950	71.680	-13.696
7672.960	71.570	-13.770
7672.990	72.470	-13.770
7673.060	70.390	-13.623
7673.110	66.980	-13.403
7673.120	66.750	-13.037
7673.140	64.340	-12.891
7673.160	63.590	-12.451
7673.180	58.810	-12.158
7673.300	39.080	-8.862
7673.440	4.310	-2.490
7673.450	1.580	-2.124
7673.930	-86.300	15.747
7673.960	-88.130	16.333
7673.980	-88.240	16.772
7674.180	-86.650	16.992
7674.190	-86.320	16.626
7674.200	-85.310	16.699
7674.280	-71.880	14.868
7674.290	-68.910	14.355
7674.610	8.580	-0.073
7674.870	55.500	-10.107
7674.880	55.910	-10.181
7674.910	59.150	-10.913
7674.940	61.060	-11.426
7675.100	64.470	-12.305
7675.240	49.950	-10.327
7675.310	35.740	-8.350
7675.460	1.990	-1.904
7675.870	-70.980	13.184
7675.940	-75.160	14.136
7676.050	-76.960	14.868
7676.070	-76.780	14.648
7676.190	-64.740	13.110
7676.200	-62.330	13.257
7676.790	65.740	-11.572
7676.860	74.710	-13.477
7676.870	75.280	-13.916
7676.940	81.780	-15.381
7676.970	83.590	-15.747
7676.990	84.250	-15.894
7677.120	82.820	-16.113
7677.130	81.990	-16.113
7677.290	62.520	-12.817
7677.380	42.390	-9.448
7677.580	-9.440	0.513
7677.710	-35.630	6.299
7677.770	-47.420	7.837
7677.940	-64.440	12.524
7677.970	-66.020	12.524
7677.980	-66.630	12.451
7678.000	-67.150	12.451
7678.050	-65.370	12.817
7678.060	-65.170	12.671
7678.130	-60.880	12.085
7678.140	-59.260	12.158
7678.160	-58.070	11.646
7678.510	7.700	0.293
7678.840	71.140	-12.817
7678.930	79.050	-14.941
7679.020	82.420	-15.454
7679.080	80.190	-15.747
7679.160	72.790	-14.575
7679.330	46.530	-10.254
7679.380	36.280	-8.350
7679.410	27.320	-7.251
7679.420	24.650	-6.812
7679.430	23.260	-6.226
7679.610	-24.170	3.442
7679.690	-39.500	6.445
7679.760	-51.850	9.009
7679.790	-55.010	9.961
7679.860	-63.080	11.353
7679.880	-65.750	11.865
7679.940	-68.970	13.184
7680.100	-71.490	13.696
7680.150	-68.980	13.477
7680.170	-67.090	13.037
7680.180	-64.960	13.257
7680.340	-36.410	8.350
7680.370	-29.530	7.104
7680.460	-6.670	3.223
7680.470	-4.090	2.856
7680.520	7.250	0.220
7680.600	24.910	-3.223
7680.650	32.380	-5.200
7680.660	33.990	-5.420
7680.760	49.180	-8.936
7680.810	59.360	-10.400
7680.820	60.990	-10.400
7680.830	61.790	-10.986
7680.840	62.250	-11.133
7681.060	78.730	-15.088
7681.090	76.800	-15.088
7681.120	75.030	-14.722
7681.190	65.890	-13.477
7681.210	62.520	-13.110
7681.240	57.670	-12.158
7681.270	52.740	-11.353
7681.320	40.990	-9.082
7681.890	-81.440	14.648
7681.900	-82.200	15.088
7681.930	-84.930	15.820
7681.980	-86.210	16.040
7682.020	-86.550	16.479
7682.120	-82.550	16.113
7682.150	-79.730	15.674
7682.160	-78.480	15.894
7682.170	-76.200	15.527
7682.250	-64.830	13.696
7682.260	-62.240	13.110
7682.280	-60.440	12.158
7682.290	-57.460	11.646
7682.320	-50.490	10.693
7682.330	-47.440	10.107
7682.430	-21.800	5.859
7682.680	38.340	-5.933
7682.710	42.140	-7.251
7682.720	44.380	-7.471
7682.950	74.130	-13.916
7682.960	74.700	-13.916
7682.970	74.390	-13.843
7683.010	74.930	-14.355
7683.040	73.840	-14.209
7683.050	73.660	-14.209
7683.200	63.920	-12.451
7683.380	29.360	-7.104
7683.800	-62.820	11.133
7683.910	-74.600	13.550
7683.930	-76.030	14.136
7683.940	-76.130	14.209
7683.960	-76.140	14.502
7684.000	-76.900	14.795
7684.060	-74.630	14.575
7684.080	-73.710	14.355
7684.140	-69.470	13.843
7684.540	1.680	1.538
7684.790	52.190	-9.229
7684.860	60.400	-10.693
7684.890	63.700	-11.572
7684.930	64.570	-12.305
7684.950	65.920	-12.524
7684.970	67.310	-13.037
7684.980	67.420	-12.598
7685.060	67.650	-13.037
7685.150	62.990	-12.598
7685.210	55.380	-11.353
7685.350	32.110	-7.104
7685.550	-23.060	2.637
7685.630	-40.050	6.299
7685.640	-41.810	6.812
7685.660	-45.780	7.544
7685.920	-78.960	14.722
7685.960	-80.060	15.234
7685.970	-80.610	14.941
7685.990	-81.650	15.527
7686.050	-79.730	15.527
7686.060	-79.860	15.308
7686.090	-78.720	15.088
7686.130	-73.900	15.088
7686.150	-71.640	14.575
7686.190	-66.880	13.770
7686.250	-53.570	11.572
7686.280	-49.180	10.693
7686.720	48.740	-7.983
7686.880	70.210	-13.184
7686.910	74.330	-13.696
7686.920	75.380	-13.696
7686.990	79.240	-14.722
7687.040	78.240	-14.868
7687.050	78.160	-15.308
7687.060	78.370	-15.308
7687.070	78.190	-15.015
7687.100	76.100	-14.868
7687.140	73.490	-14.502
7687.160	72.590	-14.355
7687.170	70.900	-14.062
7687.580	-20.690	2.490
7687.760	-53.220	9.155
7688.070	-72.340	13.989
7688.100	-70.850	13.916
7688.230	-52.150	10.913
7688.300	-38.450	8.423
7688.390	-14.600	4.614
7688.730	61.040	-10.547
7688.740	62.860	-10.547
7688.760	64.150	-11.499
7688.770	65.710	-11.938
7688.960	85.550	-16.113
7689.660	-21.040	2.197
7689.690	-25.390	3.662
7689.740	-34.970	5.347
7689.810	-45.750	7.544
7690.050	-60.500	11.499
7690.070	-60.350	11.279
7690.130	-56.720	11.279
7690.140	-56.300	11.206
7690.150	-55.310	10.767
7690.400	-13.920	3.735
7690.560	23.050	-3.076
7690.570	24.760	-3.369
7690.580	27.150	-3.882
7690.590	28.780	-4.321
7690.600	31.260	-4.687
7690.690	47.160	-7.690
7690.700	49.760	-8.130
7690.810	64.540	-11.719
7690.850	68.840	-12.524
7690.860	69.420	-12.891
7690.870	70.200	-12.817
7690.980	75.640	-14.209
7690.990	75.310	-14.429
7691.000	74.930	-14.429
7691.030	74.420	-14.429
7691.040	74.300	-14.429
7691.050	73.320	-14.282
7691.090	71.280	-14.062
7691.310	38.670	-8.496
7691.320	36.960	-7.983
7691.390	20.030	-5.640
7691.430	10.350	-3.809
7691.630	-38.760	5.859
7691.650	-43.500	7.544
7691.760	-63.660	10.840
7691.850	-75.790	13.623
7691.880	-77.560	14.282
7692.090	-92.470	16.992
7692.100	-92.410	17.358
7692.110	-91.420	17.725
7692.350	-64.930	13.403
7692.640	9.050	-0.146
7692.660	13.600	-1.245
7692.670	15.520	-1.611
7692.680	18.120	-1.904
7692.860	44.900	-7.690
7692.880	46.960	-8.569
7693.090	58.770	-11.353
7693.100	57.390	-10.913
7693.160	53.150	-10.547
7693.210	46.420	-9.888
7693.220	44.470	-9.668
7693.280	33.640	-7.837
7693.310	29.300	-6.738
7693.560	-29.770	4.175
7693.730	-61.630	10.474
7693.790	-69.850	12.671
7693.900	-79.970	15.015
7693.910	-80.350	14.868
7693.930	-81.070	15.381
7693.990	-83.300	15.894
7694.010	-82.760	15.894
7694.070	-80.170	15.674
7694.170	-69.430	14.136
7694.810	67.310	-12.305
7694.840	71.600	-13.184
7695.050	83.090	-16.406
7695.330	50.510	-10.400
7695.850	-62.910	11.499
7696.080	-72.710	14.209
7696.090	-72.450	14.136
7696.110	-72.310	13.989
7696.890	78.850	-14.429
7696.940	81.900	-15.674
7696.960	82.920	-15.674
7697.030	84.170	-16.113
7697.140	81.110	-15.820
7697.150	80.080	-15.894
7697.590	-11.440	0.439
7697.800	-49.770	8.496
7697.910	-61.310	10.767
7697.930	-62.560	11.572
7697.950	-63.060	11.865
7697.960	-63.400	11.865
7698.030	-64.740	12.378
7698.070	-62.840	12.305
7698.080	-62.230	12.451
7698.120	-59.940	12.012
7698.140	-56.660	11.426
7698.150	-55.710	11.499
7698.290	-33.080	8.057
7698.610	34.610	-5.566
7698.620	36.310	-6.006
7698.630	38.630	-6.079
7698.940	81.640	-15.381
7698.950	82.270	-15.308
7698.990	81.030	-15.674
7699.050	80.560	-15.601
7699.120	76.540	-15.161
7699.130	75.960	-14.941
7699.140	75.200	-15.088
7699.150	74.450	-14.722
7699.170	71.370	-14.722
7699.260	57.350	-12.085
7699.460	15.770	-4.175
7699.470	13.450	-3.955
7699.520	0.540	-1.392
7699.660	-35.320	5.273
7699.720	-46.910	7.617
7699.940	-81.080	14.722
7700.210	-89.630	16.846
7700.220	-88.820	16.992
7700.230	-86.150	17.285
7700.280	-77.910	16.187
7700.630	8.500	-0.146
7700.640	11.510	-0.439
7700.650	13.360	-0.879
7700.710	25.110	-3.735
7700.800	41.220	-6.812
7700.810	41.800	-6.958
7700.830	44.650	-7.617
7700.930	53.700	-9.888
7700.970	55.110	-10.327
7701.080	55.840	-10.693
7701.100	54.190	-10.767
7701.150	50.590	-10.181
7701.160	49.670	-10.327
7701.170	48.010	-9.741
7701.250	35.090	-7.983
7701.390	5.930	-2.271
7701.510	-27.540	3.442
7701.980	-87.830	16.772
7701.990	-87.770	16.919
7702.260	-69.000	14.722
7702.500	-14.560	3.735
7702.660	28.590	-3.735
7702.960	77.460	-14.429
7702.980	78.890	-14.575
7703.080	80.240	-15.527
7703.090	80.130	-15.601
7703.110	79.000	-15.454
7703.120	78.120	-15.454
7703.140	76.470	-15.381
7703.150	76.210	-14.941
7703.360	43.000	-9.082
7703.420	28.200	-6.958
7703.760	-40.400	6.445
7704.110	-56.440	10.913
7704.170	-48.860	10.474
7704.180	-48.200	9.961
7704.350	-11.690	4.028
7704.780	85.710	-15.454
7704.790	87.180	-15.894
7704.820	91.310	-16.626
7705.080	99.980	-19.482
7705.320	65.470	-13.989
7705.420	42.960	-9.668
7705.960	-80.610	14.209
7706.030	-80.920	15.674
7706.090	-78.950	15.601
7706.100	-78.960	15.234
7706.240	-63.690	13.257
7706.630	29.000	-4.321
7706.950	76.510	-14.355
7706.960	76.500	-14.429
7707.000	76.350	-14.575
7707.030	76.220	-14.575
7707.090	73.890	-14.355
7707.120	71.860	-14.062
7707.190	64.370	-12.891
7707.310	41.400	-8.862
7707.610	-31.950	4.687
7707.750	-59.630	10.181
7707.770	-62.620	10.547
7707.870	-73.590	13.623
7707.900	-76.750	14.355
7707.910	-77.880	14.429
7708.300	-57.190	12.524
7708.470	-17.230	4.687
7708.500	-12.330	3.003
7708.590	13.740	-1.245
7708.640	25.560	-3.223
7708.650	26.420	-3.589
7708.910	66.170	-11.938
7708.950	68.380	-12.598
7708.960	68.880	-12.744
7709.070	69.080	-13.403
7709.100	68.060	-12.964
7709.110	67.130	-12.964
7709.150	62.410	-12.671
7709.160	61.270	-12.671
7709.230	51.430	-10.840
7709.300	38.920	-8.350
7709.600	-33.110	5.273
7709.610	-34.680	5.786
7709.620	-35.430	6.079
7709.680	-47.560	8.057
7709.690	-48.340	7.910
7709.790	-65.400	11.572
7709.820	-68.220	12.231
7709.940	-79.890	15.161
7709.980	-81.510	15.747
7710.000	-81.540	15.161
7710.010	-80.780	15.820
7710.050	-80.000	15.601
7710.070	-79.640	15.601
7710.090	-77.760	15.454
7710.250	-61.480	12.451
7710.260	-59.660	12.012
7710.270	-58.520	11.646
7710.950	82.450	-15.527
7711.070	84.390	-16.260
7711.280	69.420	-13.623
7711.400	42.730	-9.155
7711.880	-60.650	11.060
7711.900	-62.410	11.499
7711.910	-63.160	11.719
7711.930	-64.210	11.865
7711.980	-66.850	12.451
7712.010	-67.570	12.817
7712.060	-66.040	13.184
7712.130	-62.120	12.451
7712.260	-46.020	9.741
7712.470	3.590	0.513
7712.480	6.730	0.513
7712.630	37.950	-5.786
7712.660	41.980	-6.958
7712.680	45.320	-7.471
7712.950	83.320	-15.454
7712.960	84.010	-15.894
7712.980	83.640	-15.894
7712.990	82.770	-16.040
7713.070	81.840	-15.454
7713.120	77.980	-15.674
7713.130	77.290	-15.381
7713.140	76.910	-15.234
7713.200	67.820	-13.843
7713.280	54.010	-11.646
7713.290	50.990	-10.986
7713.550	-7.250	-0.220
7713.570	-8.120	0.659
7714.160	-74.110	14.209
7714.770	41.160	-6.958
7714.790	44.160	-7.544
7715.000	63.620	-12.085
7715.020	63.600	-12.378
7715.070	60.980	-12.378
7715.140	56.420	-11.279
7715.150	55.870	-11.206
7715.160	54.880	-11.206
7715.180	51.920	-10.767
7715.190	49.550	-10.474
7715.210	48.150	-10.107
7715.280	34.320	-7.983
7715.290	31.300	-7.617
7715.460	-8.930	-0.146
7715.530	-24.730	3.955
7715.690	-60.450	10.327
7715.700	-62.060	10.767
7715.790	-77.710	13.843
7715.810	-80.950	14.429
7715.850	-84.580	15.454
7715.880	-87.660	16.113
7716.010	-93.320	17.871
7716.030	-92.970	17.725
7716.040	-92.770	18.018
7716.110	-88.380	17.212
7716.130	-87.230	17.358
7716.210	-76.980	15.674
7716.290	-60.520	12.671
7716.460	-18.160	5.200
7716.550	6.490	0.659
7716.560	9.660	0.073
7716.620	21.380	-2.930
7716.680	36.400	-5.420
7716.700	38.950	-6.665
7717.000	74.650	-14.209
7717.010	74.390	-14.209
7717.090	72.000	-13.989
7717.440	19.830	-5.493
7717.450	17.570	-5.054
7717.460	13.920	-4.687
7717.540	-9.890	0.073
7717.580	-18.970	1.831
7717.590	-21.240	2.490
7717.640	-33.480	4.834
7717.740	-49.900	8.423
7717.880	-67.400	12.524
7718.100	-70.830	13.770
7718.170	-64.360	12.744
7718.180	-62.590	12.817
7718.200	-59.080	12.524
7718.470	0.690	1.831
7718.680	48.150	-7.764
7718.700	52.400	-8.936
7718.760	62.400	-11.060
